# mass[GeV],pp2s_N3LO_13.6TeV[pb]_max
3.000000000000000000e+01 8.618478658041502172e+01
3.500000000000000000e+01 5.903312070716494020e+01
4.000000000000000000e+01 4.343820333214289775e+01
4.500000000000000000e+01 3.371090150737952484e+01
5.000000000000000000e+01 2.719628652382239764e+01
5.500000000000000000e+01 2.258920435223148004e+01
6.000000000000000000e+01 1.918687974609290947e+01
6.500000000000000000e+01 1.657657168761282662e+01
7.000000000000000000e+01 1.451286659864353368e+01
7.500000000000000000e+01 1.283959220218194197e+01
8.000000000000000000e+01 1.146750719708343880e+01
8.500000000000000000e+01 1.032075647737509350e+01
9.000000000000000000e+01 9.345795262370140577e+00
9.500000000000000000e+01 8.508042547875037442e+00
1.000000000000000000e+02 7.782956976075013245e+00
1.050000000000000000e+02 7.150459254212531590e+00
1.100000000000000000e+02 6.592701122058669760e+00
1.150000000000000000e+02 6.099642933234653341e+00
1.200000000000000000e+02 5.662360557626024082e+00
1.250000000000000000e+02 5.270814348854012010e+00
1.300000000000000000e+02 4.920542241861385335e+00
1.350000000000000000e+02 4.603735622797991311e+00
1.400000000000000000e+02 4.318163459135212712e+00
1.450000000000000000e+02 4.059363685815820411e+00
1.500000000000000000e+02 3.823989754046889900e+00
1.600000000000000000e+02 2.116015968152563875e+00
1.700000000000000000e+02 1.900886525166147534e+00
1.800000000000000000e+02 1.718960340261235897e+00
1.900000000000000000e+02 1.315330885032126806e+00
2.000000000000000000e+02 8.418440769370222343e-01
2.100000000000000000e+02 5.375079640671864833e-01
2.200000000000000000e+02 4.967958161534133388e-01
2.300000000000000000e+02 5.283606040942486759e-01
2.400000000000000000e+02 7.600479506923307760e-01
2.500000000000000000e+02 4.991720261219645960e-01
2.600000000000000000e+02 5.357711992700889825e-01
2.700000000000000000e+02 4.828271234177761162e-01
2.800000000000000000e+02 2.962629187620761662e-01
2.900000000000000000e+02 3.943808625581187166e-01
3.000000000000000000e+02 4.519804267353180194e-01
3.100000000000000000e+02 3.409268560684758920e-01
3.200000000000000000e+02 2.254591462912436950e-01
3.300000000000000000e+02 1.942810408619078111e-01
3.400000000000000000e+02 1.765790316438949070e-01
3.500000000000000000e+02 1.946098131122426800e-01
3.600000000000000000e+02 2.157079376332709797e-01
3.700000000000000000e+02 2.598527571559092753e-01
3.800000000000000000e+02 2.988544064970302672e-01
3.900000000000000000e+02 2.878390299756540260e-01
4.000000000000000000e+02 2.741252337086144686e-01
4.100000000000000000e+02 2.486992247362004027e-01
4.200000000000000000e+02 2.053565792770913334e-01
4.300000000000000000e+02 2.190870752863602611e-01
4.400000000000000000e+02 2.309442814590128845e-01
4.500000000000000000e+02 2.410487733176866210e-01
4.600000000000000000e+02 2.493813585231935692e-01
4.700000000000000000e+02 2.561451932671705012e-01
4.800000000000000000e+02 2.499931709600097807e-01
4.900000000000000000e+02 1.925467971308951753e-01
5.000000000000000000e+02 1.498848971734861590e-01
5.500000000000000000e+02 1.069122701574959505e-01
6.000000000000000000e+02 8.780778354397093810e-02
6.500000000000000000e+02 9.073511209996495963e-02
7.000000000000000000e+02 7.274594693768855758e-02
7.500000000000000000e+02 5.261886332538284750e-02
8.000000000000000000e+02 3.672298044319313726e-02
8.500000000000000000e+02 2.646128784127413022e-02
9.000000000000000000e+02 1.910862638707518449e-02
9.500000000000000000e+02 1.397006795377929954e-02
1.000000000000000000e+03 1.030814202279064021e-02
1.050000000000000000e+03 7.691781010746006481e-03
1.100000000000000000e+03 5.785164725975442714e-03
1.150000000000000000e+03 4.390212438514257132e-03
1.200000000000000000e+03 3.357664734162052987e-03
1.250000000000000000e+03 2.586079183010467700e-03
1.300000000000000000e+03 2.005112045703015457e-03
1.350000000000000000e+03 1.564193506988552883e-03
1.400000000000000000e+03 1.227631967092843819e-03
1.450000000000000000e+03 9.692072675739954370e-04
1.500000000000000000e+03 7.688024192792783590e-04
1.550000000000000000e+03 6.136328143842992777e-04
1.600000000000000000e+03 4.918314439864602009e-04
1.650000000000000000e+03 3.962953440780707902e-04
1.700000000000000000e+03 3.206076010809098603e-04
1.750000000000000000e+03 2.602048396396009476e-04
1.800000000000000000e+03 2.119396764332617442e-04
1.850000000000000000e+03 1.734147159518660607e-04
1.900000000000000000e+03 1.423210024948304276e-04
1.950000000000000000e+03 1.171390049809461478e-04
2.000000000000000000e+03 9.674536891659536156e-05
2.050000000000000000e+03 8.001799568092388918e-05
2.100000000000000000e+03 6.638971646380237984e-05
2.150000000000000000e+03 5.523640481420816016e-05
2.200000000000000000e+03 4.610597491294119506e-05
2.250000000000000000e+03 3.853757583295772631e-05
2.300000000000000000e+03 3.227845857010556535e-05
2.350000000000000000e+03 2.711627256304774682e-05
2.400000000000000000e+03 2.284690013296032340e-05
2.450000000000000000e+03 1.927438272244823148e-05
2.500000000000000000e+03 1.627399807771969941e-05
2.550000000000000000e+03 1.379216600766000203e-05
2.600000000000000000e+03 1.174607544608406648e-05
2.650000000000000000e+03 9.996794317823161203e-06
2.700000000000000000e+03 8.525377339899727503e-06
2.750000000000000000e+03 7.268673569055249114e-06
2.800000000000000000e+03 6.239944703374014409e-06
2.850000000000000000e+03 5.331202629883962731e-06
2.900000000000000000e+03 4.598651688085170635e-06
2.950000000000000000e+03 3.936198293303332826e-06
3.000000000000000000e+03 3.393731690712676348e-06
