# mass[GeV],pp2s_N3LO_13.6TeV[pb]_min
3.000000000000000000e+01 2.109124493018962809e+01
3.500000000000000000e+01 1.444665650667402623e+01
4.000000000000000000e+01 1.063024951568190524e+01
4.500000000000000000e+01 8.249772479812717663e+00
5.000000000000000000e+01 6.655508042946197023e+00
5.500000000000000000e+01 5.528057336737509431e+00
6.000000000000000000e+01 4.695436355154821939e+00
6.500000000000000000e+01 4.056638618465155055e+00
7.000000000000000000e+01 3.551606219800246489e+00
7.500000000000000000e+01 3.142120491153023387e+00
8.000000000000000000e+01 2.806342193662300755e+00
8.500000000000000000e+01 2.525707974296070635e+00
9.000000000000000000e+01 2.287114289737622208e+00
9.500000000000000000e+01 2.082098434928246089e+00
1.000000000000000000e+02 1.904654619181116004e+00
1.050000000000000000e+02 1.749869013752465730e+00
1.100000000000000000e+02 1.613373770870058399e+00
1.150000000000000000e+02 1.492711976162009790e+00
1.200000000000000000e+02 1.385699705742202248e+00
1.250000000000000000e+02 1.289880045238751993e+00
1.300000000000000000e+02 1.204161032708600088e+00
1.350000000000000000e+02 1.126631734751392555e+00
1.400000000000000000e+02 1.056746170395600037e+00
1.450000000000000000e+02 9.934123776981627074e-01
1.500000000000000000e+02 9.358113852017868606e-01
1.600000000000000000e+02 8.350778959545698266e-01
1.700000000000000000e+02 7.501778548817124026e-01
1.800000000000000000e+02 6.783813571255660202e-01
1.900000000000000000e+02 6.172314883142473452e-01
2.000000000000000000e+02 5.650903055331676361e-01
2.100000000000000000e+02 4.724419279771471247e-01
2.200000000000000000e+02 4.803058235512721041e-01
2.300000000000000000e+02 4.459051589850110964e-01
2.400000000000000000e+02 4.164538530720532372e-01
2.500000000000000000e+02 3.908531572574056034e-01
2.600000000000000000e+02 3.812043009360429058e-01
2.700000000000000000e+02 3.591917267442320538e-01
2.800000000000000000e+02 2.020991472763821462e-01
2.900000000000000000e+02 2.496512212980459000e-01
3.000000000000000000e+02 3.016251462899836033e-01
3.100000000000000000e+02 2.191920624470877210e-01
3.200000000000000000e+02 1.567288420465782761e-01
3.300000000000000000e+02 1.559888774281850132e-01
3.400000000000000000e+02 1.375799828481864828e-01
3.500000000000000000e+02 1.483344000425330378e-01
3.600000000000000000e+02 1.805096204529413328e-01
3.700000000000000000e+02 2.131484461685770049e-01
3.800000000000000000e+02 2.360160941212311181e-01
3.900000000000000000e+02 2.273168543398168262e-01
4.000000000000000000e+02 2.164865752468660420e-01
4.100000000000000000e+02 2.043749845849918423e-01
4.200000000000000000e+02 1.667197498734562244e-01
4.300000000000000000e+02 1.548087488202158080e-01
4.400000000000000000e+02 1.655316679746735298e-01
4.500000000000000000e+02 1.360201843951286127e-01
4.600000000000000000e+02 1.431738170090117168e-01
4.700000000000000000e+02 1.323721712431982778e-01
4.800000000000000000e+02 1.390502772662851882e-01
4.900000000000000000e+02 1.443945608654962631e-01
5.000000000000000000e+02 1.195371151824250189e-01
5.500000000000000000e+02 7.924468725310257478e-02
6.000000000000000000e+02 6.831193782823649641e-02
6.500000000000000000e+02 4.378820316815461994e-02
7.000000000000000000e+02 2.859568291301502196e-02
7.500000000000000000e+02 1.901003327541114438e-02
8.000000000000000000e+02 1.300353190435843409e-02
8.500000000000000000e+02 8.805292993893661102e-03
9.000000000000000000e+02 6.186396703286868234e-03
9.500000000000000000e+02 4.414645603864851379e-03
1.000000000000000000e+03 3.156409977157909920e-03
1.050000000000000000e+03 2.355265795790786616e-03
1.100000000000000000e+03 1.771449366937167527e-03
1.150000000000000000e+03 1.344307277890771689e-03
1.200000000000000000e+03 1.028135472273131309e-03
1.250000000000000000e+03 7.918717181939629408e-04
1.300000000000000000e+03 6.139763744410573886e-04
1.350000000000000000e+03 4.789646844939056381e-04
1.400000000000000000e+03 3.759076835226626552e-04
1.450000000000000000e+03 2.967766143055446983e-04
1.500000000000000000e+03 2.354115437399943950e-04
1.550000000000000000e+03 1.878977543529939905e-04
1.600000000000000000e+03 1.506015025255317836e-04
1.650000000000000000e+03 1.213478214777847510e-04
1.700000000000000000e+03 9.817181685768864674e-05
1.750000000000000000e+03 7.967615794653776695e-05
1.800000000000000000e+03 6.489709860133087503e-05
1.850000000000000000e+03 5.310054308587130762e-05
1.900000000000000000e+03 4.357947642170571312e-05
1.950000000000000000e+03 3.586860980560220298e-05
2.000000000000000000e+03 2.962396589191487571e-05
2.050000000000000000e+03 2.450195189016910247e-05
2.100000000000000000e+03 2.032889758054574628e-05
2.150000000000000000e+03 1.691369199923962714e-05
2.200000000000000000e+03 1.411790397338761909e-05
2.250000000000000000e+03 1.180041840573094738e-05
2.300000000000000000e+03 9.883842156297451879e-06
2.350000000000000000e+03 8.303152311260654788e-06
2.400000000000000000e+03 6.995846910856147996e-06
2.450000000000000000e+03 5.901922363330564031e-06
2.500000000000000000e+03 4.983188026241107474e-06
2.550000000000000000e+03 4.223237349363825561e-06
2.600000000000000000e+03 3.596713127205455979e-06
2.650000000000000000e+03 3.061073591594751202e-06
2.700000000000000000e+03 2.610517592326540630e-06
2.750000000000000000e+03 2.225707962050258285e-06
2.800000000000000000e+03 1.910705505909522103e-06
2.850000000000000000e+03 1.632443667734863272e-06
2.900000000000000000e+03 1.408132526468286560e-06
2.950000000000000000e+03 1.205285640960839157e-06
3.000000000000000000e+03 1.039179373419468894e-06
